AOA[deg] xc,ave sig_xc,for sig_xc,aft
-4.338   0.630    0.008     0.008
-3.327   0.616    0.008     0.008
-2.312   0.598    0.008     0.008
-1.297   0.573    0.008     0.008
-0.282   0.552    0.008     0.008
 0.733   0.528    0.008     0.008
 1.749   0.501    0.008     0.008
 2.764   0.483    0.008     0.008
 3.779   0.467    0.008     0.008
 4.794   0.423    0.008     0.008
 5.809   0.371    0.008     0.008
 6.316   0.298    0.008     0.008
 6.822   0.227    0.012     0.017
 7.328   0.171    0.013     0.012
 8.340   0.140    0.008     0.008
