AOA[deg] xc,ave sig_xc,for sig_xc,aft
-4.055   0.648    0.008     0.008
-3.041   0.632    0.008     0.008
-2.025   0.608    0.008     0.008
-1.010   0.586    0.008     0.008
 0.004   0.578    0.008     0.008
 1.020   0.552    0.008     0.008
 2.035   0.522    0.008     0.008
 3.051   0.509    0.008     0.008
 4.066   0.489    0.008     0.008
 5.082   0.468    0.008     0.008
 6.097   0.416    0.008     0.008
 7.111   0.338    0.008     0.008
 8.122   0.221    0.008     0.008
