AOA[deg] xc,ave sig_xc,for sig_xc,aft
-4.056   0.538    0.008     0.008
-3.043   0.525    0.008     0.008
-2.028   0.511    0.008     0.008
-1.012   0.483    0.008     0.008
 0.003   0.460    0.008     0.008
 0.511   0.383    0.048     0.065
 1.018   0.317    0.091     0.104
 1.525   0.275    0.092     0.122
 2.032   0.226    0.099     0.100
 2.540   0.187    0.081     0.056
 3.047   0.150    0.059     0.048
 3.555   0.124    0.044     0.037
 4.062   0.105    0.071     0.054
 4.570   0.075    0.075     0.060
 5.077   0.050    0.050     0.049
