AOA[deg] xc,ave sig_xc,for sig_xc,aft
-4.054   0.620    0.008     0.008
-3.041   0.597    0.008     0.008
-2.026   0.578    0.008     0.008
-1.011   0.562    0.008     0.008
 0.005   0.539    0.008     0.008
 1.020   0.520    0.008     0.008
 2.036   0.498    0.008     0.008
 3.050   0.472    0.008     0.008
 4.066   0.444    0.008     0.008
 5.081   0.418    0.008     0.008
 6.095   0.337    0.008     0.008
 6.602   0.244    0.008     0.008
 7.108   0.191    0.008     0.008
 7.614   0.148    0.008     0.008
