AOA[deg] xc,ave sig_xc,for sig_xc,aft
-4.054   0.585    0.008     0.008
-3.041   0.577    0.008     0.008
-2.026   0.556    0.008     0.008
-1.010   0.530    0.008     0.008
 0.005   0.507    0.008     0.008
 1.020   0.485    0.008     0.008
 2.036   0.458    0.008     0.008
 3.051   0.432    0.008     0.008
 4.066   0.410    0.008     0.008
 4.574   0.382    0.008     0.008
 5.081   0.279    0.061     0.066
 5.588   0.212    0.049     0.053
 6.095   0.164    0.029     0.035
 6.601   0.117    0.050     0.048
