AOA[deg] xc,ave sig_xc,for sig_xc,aft
-4.338   0.598    0.008     0.008
-3.327   0.578    0.008     0.008
-2.312   0.563    0.008     0.008
-1.297   0.541    0.008     0.008
-0.282   0.520    0.008     0.008
 0.733   0.500    0.008     0.008
 1.749   0.475    0.008     0.008
 2.764   0.450    0.008     0.008
 3.779   0.431    0.008     0.008
 4.794   0.372    0.008     0.008
 5.301   0.285    0.008     0.008
 5.808   0.218    0.031     0.034
 6.315   0.152    0.023     0.022
