AOA[deg] xc,ave sig_xc,for sig_xc,aft
-4.054   0.649    0.008     0.008
-3.040   0.629    0.008     0.008
-2.026   0.604    0.008     0.008
-1.010   0.590    0.008     0.008
 0.005   0.575    0.008     0.008
 1.020   0.544    0.008     0.008
 2.035   0.532    0.008     0.008
 3.051   0.517    0.008     0.008
 4.067   0.484    0.008     0.008
 5.082   0.456    0.008     0.008
 6.097   0.426    0.008     0.008
 7.110   0.325    0.008     0.008
 8.122   0.191    0.010     0.012
