AOA[deg] xc,ave sig_xc,for sig_xc,aft
-4.105   0.625    0.008     0.008
-3.092   0.608    0.008     0.008
-2.076   0.585    0.008     0.008
-1.061   0.562    0.008     0.008
-0.047   0.539    0.008     0.008
 0.968   0.522    0.008     0.008
 1.984   0.498    0.008     0.008
 2.999   0.484    0.008     0.008
 3.507   0.468    0.008     0.008
 4.014   0.455    0.008     0.008
 4.522   0.433    0.008     0.008
 5.029   0.338    0.054     0.074
 5.536   0.266    0.078     0.088
 6.043   0.195    0.065     0.065
 6.549   0.166    0.045     0.043
 7.055   0.130    0.035     0.030
