AOA[deg] xc,ave sig_xc,for sig_xc,aft
-4.054   0.651    0.008     0.008
-3.040   0.629    0.008     0.008
-2.026   0.611    0.008     0.008
-1.011   0.601    0.008     0.008
 0.004   0.571    0.008     0.008
 1.019   0.555    0.008     0.008
 2.034   0.536    0.008     0.008
 3.049   0.511    0.008     0.008
 4.064   0.484    0.008     0.008
 5.077   0.460    0.008     0.008
 6.091   0.436    0.008     0.008
 6.597   0.361    0.008     0.008
 7.104   0.319    0.008     0.008
 8.115   0.175    0.013     0.013
