AOA[deg] xc,ave sig_xc,for sig_xc,aft
-4.105   0.663    0.008     0.008
-3.092   0.644    0.008     0.008
-2.076   0.631    0.008     0.008
-1.061   0.601    0.008     0.008
-0.047   0.588    0.008     0.008
 0.968   0.560    0.010     0.010
 1.984   0.540    0.010     0.010
 2.999   0.510    0.010     0.010
 4.014   0.490    0.010     0.010
 5.029   0.470    0.010     0.010
 6.043   0.440    0.010     0.010
 7.055   0.370    0.010     0.010
 8.067   0.280    0.010     0.010
