AOA[deg] xc,ave sig_xc,for sig_xc,aft
-4.104   0.650    0.010     0.010
-3.091   0.630    0.010     0.010
-2.077   0.620    0.010     0.010
-1.062   0.600    0.010     0.010
-0.047   0.580    0.010     0.010
 0.967   0.550    0.010     0.010
 1.983   0.535    0.015     0.015
 2.997   0.510    0.010     0.010
 4.012   0.490    0.010     0.010
 5.026   0.460    0.010     0.010
 6.040   0.420    0.010     0.010
 7.053   0.325    0.015     0.015
 7.559   0.260    0.010     0.010
 8.064   0.190    0.020     0.020
 8.569   0.145    0.015     0.015
