AOA[deg] xc,ave sig_xc,for sig_xc,aft
-4.109   0.536    0.008     0.008
-3.095   0.522    0.008     0.008
-2.080   0.505    0.008     0.008
-1.065   0.484    0.008     0.008
-0.049   0.469    0.008     0.008
 0.966   0.436    0.008     0.008
 1.982   0.405    0.008     0.008
 2.997   0.363    0.008     0.008
 3.505   0.341    0.008     0.008
 4.012   0.321    0.008     0.008
 4.520   0.302    0.008     0.008
 5.027   0.280    0.008     0.008
 5.535   0.255    0.008     0.008
 6.042   0.200    0.008     0.008
