AOA[deg] xc,ave sig_xc,for sig_xc,aft
-4.071   0.652    0.008     0.008
-3.057   0.639    0.008     0.008
-2.043   0.619    0.008     0.008
-1.027   0.600    0.008     0.008
-0.013   0.573    0.008     0.008
 1.003   0.546    0.008     0.008
 2.018   0.525    0.008     0.008
 3.034   0.506    0.008     0.008
 4.049   0.483    0.008     0.008
 5.064   0.451    0.008     0.008
 6.079   0.435    0.008     0.008
 7.094   0.350    0.008     0.008
 8.108   0.249    0.008     0.008
