AOA[deg] xc,ave sig_xc,for sig_xc,aft
-4.106   0.620    0.010     0.010
-3.092   0.600    0.010     0.010
-2.077   0.580    0.010     0.010
-1.062   0.560    0.010     0.010
-0.047   0.550    0.010     0.010
 0.969   0.530    0.010     0.010
 1.984   0.500    0.010     0.010
 2.999   0.470    0.010     0.010
 4.014   0.450    0.010     0.010
 5.030   0.415    0.010     0.010
 5.537   0.400    0.010     0.010
 6.044   0.375    0.015     0.015
 6.551   0.330    0.010     0.010
 7.058   0.270    0.010     0.010
 7.564   0.220    0.010     0.010
 8.070   0.170    0.010     0.010
