AOA[deg] xc,ave sig_xc,for sig_xc,aft
-5.264   0.651    0.008     0.008
-4.251   0.634    0.008     0.008
-3.237   0.612    0.008     0.008
-2.221   0.595    0.008     0.008
-1.206   0.579    0.008     0.008
-0.191   0.550    0.008     0.008
 0.824   0.522    0.008     0.008
 1.840   0.507    0.008     0.008
 2.855   0.471    0.008     0.008
 3.870   0.455    0.008     0.008
 4.885   0.423    0.008     0.008
 5.900   0.385    0.008     0.008
 6.914   0.285    0.008     0.008
 7.926   0.200    0.015     0.023
