AOA[deg] xc,ave sig_xc,for sig_xc,aft
-4.106   0.650    0.010     0.010
-3.092   0.630    0.010     0.010
-2.077   0.620    0.010     0.010
-1.062   0.600    0.010     0.010
-0.047   0.570    0.010     0.010
 0.969   0.550    0.010     0.010
 1.984   0.522    0.012     0.013
 2.999   0.502    0.012     0.013
 4.014   0.480    0.010     0.010
 5.030   0.460    0.010     0.010
 6.044   0.420    0.010     0.010
 7.058   0.380    0.010     0.010
 7.564   0.350    0.010     0.010
 8.070   0.275    0.025     0.025
 8.576   0.220    0.010     0.010
 9.080   0.195    0.015     0.015
 9.585   0.153    0.012     0.013
