AOA[deg] xc,ave sig_xc,for sig_xc,aft
-10.546   0.700    0.020     0.020
-9.534   0.680    0.010     0.010
-8.519   0.652    0.008     0.008
-7.505   0.630    0.010     0.010
-6.491   0.625    0.008     0.008
-5.477   0.615    0.008     0.008
-4.463   0.590    0.010     0.010
-3.449   0.580    0.010     0.010
-2.435   0.555    0.008     0.008
-1.420   0.525    0.008     0.008
-0.405   0.520    0.010     0.010
 0.610   0.495    0.008     0.008
 1.625   0.475    0.008     0.008
 2.640   0.440    0.010     0.010
 3.655   0.410    0.010     0.010
 4.670   0.370    0.008     0.008
 5.177   0.340    0.010     0.010
 5.685   0.310    0.010     0.010
 6.192   0.265    0.008     0.008
 6.698   0.220    0.010     0.010
 7.205   0.153    0.008     0.008
